%time,field.linear.x,field.linear.y,field.linear.z,field.angular.x,field.angular.y,field.angular.z
1666091995930933774,0.015,0.0,0.0,0.0,0.0,-0.035547504395672995
1666091995980152839,0.03,0.0,0.0,0.0,0.0,-0.07109500879134599
1666091996030367715,0.045,0.0,0.0,0.0,0.0,-0.10664251318701898
1666091996080959611,0.06,0.0,0.0,0.0,0.0,-0.14257050795704923
1666091996130496054,0.075,0.0,0.0,0.0,0.0,-0.178666610704729
1666091996180170562,0.09,0.0,0.0,0.0,0.0,-0.21476271345240877
1666091996232827726,0.105,0.0,0.0,0.0,0.0,-0.25116239603646956
1666091996280623357,0.12,0.0,0.0,0.0,0.0,-0.28756207862053035
1666091996330276341,0.135,0.0,0.0,0.0,0.0,-0.3409902265562766
1666091996380642004,0.15000000000000002,0.0,0.0,0.0,0.0,-0.39436429252729255
1666091996430850796,0.16500000000000004,0.0,0.0,0.0,0.0,-0.43077964440170236
1666091996480895593,0.18000000000000005,0.0,0.0,0.0,0.0,-0.46786596985837564
1666091996530690515,0.19500000000000006,0.0,0.0,0.0,0.0,-0.5049522953150489
1666091996580288624,0.21000000000000008,0.0,0.0,0.0,0.0,-0.5334082148451444
1666091996630702715,0.2250000000000001,0.0,0.0,0.0,0.0,-0.56186413437524
1666091996680169981,0.2400000000000001,0.0,0.0,0.0,0.0,-0.6184873304642998
1666091996730825172,0.2550000000000001,0.0,0.0,0.0,0.0,-0.6751105265533597
1666091996780317844,0.27000000000000013,0.0,0.0,0.0,0.0,-0.7013670233900955
1666091996831734362,0.28500000000000014,0.0,0.0,0.0,0.0,-0.7280920148282743
1666091996880564814,0.30000000000000016,0.0,0.0,0.0,0.0,-0.7553295907599779
1666091996930286001,0.31500000000000017,0.0,0.0,0.0,0.0,-0.7825671666916814
1666091996980176722,0.3300000000000002,0.0,0.0,0.0,0.0,-0.8098047426233849
1666091997030370994,0.3450000000000002,0.0,0.0,0.0,0.0,-0.8373721236461188
1666091997080429417,0.3600000000000002,0.0,0.0,0.0,0.0,-0.8663931282984564
1666091997130370089,0.3750000000000002,0.0,0.0,0.0,0.0,-0.8954141329507941
1666091997180305618,0.39000000000000024,0.0,0.0,0.0,0.0,-0.9260597810471103
1666091997230309171,0.40500000000000025,0.0,0.0,0.0,0.0,-0.9567054291434265
1666091997280379252,0.42000000000000026,0.0,0.0,0.0,0.0,-0.9873510772397427
1666091997330284032,0.4350000000000003,0.0,0.0,0.0,0.0,-1.0414195104272397
1666091997380431064,0.43660297989845276,0.0,0.0,0.0,0.0,-1.0471975511965983
1666091997430532038,0.4289700388908386,0.0,0.0,0.0,0.0,-0.8726646259971653
1666091997480610076,0.4289700388908386,0.0,0.0,0.0,0.0,-0.8726646259971653
1666091997534123588,0.3022320568561554,0.0,0.0,0.0,0.0,-0.8726646259971653
1666091997580201644,0.3020898997783661,0.0,0.0,0.0,0.0,-0.8726646259971653
1666091997632358771,0.30059242248535156,0.0,0.0,0.0,0.0,-0.8726646259971653
1666091997680728657,0.29613348841667175,0.0,0.0,0.0,0.0,-0.6981317007977323
1666091997730451964,0.29613348841667175,0.0,0.0,0.0,0.0,-0.6981317007977323
1666091997780681353,0.29613348841667175,0.0,0.0,0.0,0.0,-0.6981317007977323
1666091997830534730,0.14613348841667173,0.0,0.0,0.0,0.0,-0.6331299179171179
1666091997880139939,0.0,0.0,0.0,0.0,0.0,-0.5309208784694494
1666091997932103903,0.0,0.0,0.0,0.0,0.0,-0.49026756855630743
1666091997980325885,0.0,0.0,0.0,0.0,0.0,-0.49026756855630743
1666091998030532931,0.0,0.0,0.0,0.0,0.0,-0.4499587246709379
1666091998080439952,0.0,0.0,0.0,0.0,0.0,-0.4471928111525876
1666091998130307243,0.0,0.0,0.0,0.0,0.0,-0.40603565524060564
1666091998180204394,0.0,0.0,0.0,0.0,0.0,-0.40603565524060564
1666091998232210957,0.0,0.0,0.0,0.0,0.0,-0.33142578919274523
1666091998280271576,0.0,0.0,0.0,0.0,0.0,-0.33142578919274523
1666091998331349654,0.0,0.0,0.0,0.0,0.0,-0.2870469809977937
1666091998380474371,0.0,0.0,0.0,0.0,0.0,-0.2870469809977937
1666091998430214834,0.0,0.0,0.0,0.0,0.0,-0.22170268923419245
1666091998480263244,0.0,0.0,0.0,0.0,0.0,-0.22170268923419245
1666091998530722961,0.0,0.0,0.0,0.0,0.0,-0.2212742832098898
1666091998580161845,0.0,0.0,0.0,0.0,0.0,-0.17453292519943345
1666091998630251013,0.0,0.0,0.0,0.0,0.0,-0.17453292519943345
1666091998680798300,0.0,0.0,0.0,0.0,0.0,-0.17453292519943345
1666091998730161540,0.0,0.0,0.0,0.0,0.0,-4.996003610813204e-16
1666091998780206688,0.0,0.0,0.0,0.0,0.0,-4.996003610813204e-16
1666091998830351560,0.0,0.0,0.0,0.0,0.0,-4.996003610813204e-16
1666091998880536946,0.0,0.0,0.0,0.0,0.0,-4.996003610813204e-16
1666091998930158543,0.0,0.0,0.0,0.0,0.0,-4.996003610813204e-16
1666091998981346585,0.0,0.0,0.0,0.0,0.0,-4.996003610813204e-16
1666091999030444822,0.0,0.0,0.0,0.0,0.0,-4.996003610813204e-16
1666091999080222642,0.0,0.0,0.0,0.0,0.0,-4.996003610813204e-16
1666091999130199418,0.0,0.0,0.0,0.0,0.0,-4.996003610813204e-16
1666091999180837985,0.0,0.0,0.0,0.0,0.0,-4.996003610813204e-16
1666091999230391171,0.0,0.0,0.0,0.0,0.0,-4.996003610813204e-16
1666091999280311524,0.0,0.0,0.0,0.0,0.0,-4.996003610813204e-16
1666091999330394374,0.0,0.0,0.0,0.0,0.0,-4.996003610813204e-16
1666091999380297719,0.0,0.0,0.0,0.0,0.0,-4.996003610813204e-16
1666091999430483977,0.0,0.0,0.0,0.0,0.0,-4.996003610813204e-16
1666091999480320753,0.0,0.0,0.0,0.0,0.0,-4.996003610813204e-16
1666091999530201601,0.0,0.0,0.0,0.0,0.0,-0.1000000000000005
1666091999580420829,0.0,0.0,0.0,0.0,0.0,-0.17453292519943345
1666091999630590602,0.0,0.0,0.0,0.0,0.0,-0.17453292519943345
1666091999680825873,0.0,0.0,0.0,0.0,0.0,-0.17453292519943345
1666091999731107283,0.0,0.0,0.0,0.0,0.0,-0.17453292519943345
1666091999780509270,0.0,0.0,0.0,0.0,0.0,-0.17453292519943345
1666091999830500284,0.0,0.0,0.0,0.0,0.0,-0.2164544254123019
1666091999880312062,0.0,0.0,0.0,0.0,0.0,-0.2164544254123019
1666091999930641880,0.0,0.0,0.0,0.0,0.0,-0.23451507510595937
1666091999980300559,0.0,0.0,0.0,0.0,0.0,-0.23451507510595937
1666092000030847318,0.0,0.0,0.0,0.0,0.0,-0.28416183227691577
1666092000080846535,0.0,0.0,0.0,0.0,0.0,-0.28416183227691577
1666092000130216899,0.0,0.0,0.0,0.0,0.0,-0.3050901429060403
1666092000180217469,0.0,0.0,0.0,0.0,0.0,-0.3050901429060403
1666092000230321237,0.0,0.0,0.0,0.0,0.0,-0.39553681584843253
1666092000280849791,0.0,0.0,0.0,0.0,0.0,-0.42709432984474144
1666092000330268636,0.0,0.0,0.0,0.0,0.0,-0.45957601358214634
1666092000380293563,0.0,0.0,0.0,0.0,0.0,-0.45957601358214634
1666092000430578189,0.0,0.0,0.0,0.0,0.0,-0.5013282078364706
1666092000480367498,0.0,0.0,0.0,0.0,0.0,-0.5013282078364706
1666092000530819393,0.0,0.0,0.0,0.0,0.0,-0.5013282078364706
1666092000580363914,0.015,0.0,0.0,0.0,0.0,-0.48870323689291234
1666092000630334589,0.03,0.0,0.0,0.0,0.0,-0.4768707272473309
1666092000680589632,0.045,0.0,0.0,0.0,0.0,-0.4655860988690327
1666092000730680015,0.06,0.0,0.0,0.0,0.0,-0.4546285223834566
1666092000780751762,0.075,0.0,0.0,0.0,0.0,-0.4436709458978805
1666092000830223307,0.09,0.0,0.0,0.0,0.0,-0.45400039779201895
1666092000880963974,0.105,0.0,0.0,0.0,0.0,-0.4643298496861574
1666092000930281564,0.12,0.0,0.0,0.0,0.0,-0.4429668912175612
1666092000980589564,0.135,0.0,0.0,0.0,0.0,-0.42393114199335646
1666092001030208114,0.15000000000000002,0.0,0.0,0.0,0.0,-0.40589986890228447
1666092001080234422,0.16500000000000004,0.0,0.0,0.0,0.0,-0.38786859581121247
1666092001130593334,0.18000000000000005,0.0,0.0,0.0,0.0,-0.36983732272014047
1666092001180184172,0.19500000000000006,0.0,0.0,0.0,0.0,-0.3626657182736112
1666092001230216450,0.21000000000000008,0.0,0.0,0.0,0.0,-0.355494113827082
1666092001280464679,0.2250000000000001,0.0,0.0,0.0,0.0,-0.3485201495443332
1666092001330166406,0.2400000000000001,0.0,0.0,0.0,0.0,-0.34154618526158437
1666092001380540592,0.2550000000000001,0.0,0.0,0.0,0.0,-0.334753470256297
1666092001430638969,0.27000000000000013,0.0,0.0,0.0,0.0,-0.3279607552510096
1666092001480367689,0.28500000000000014,0.0,0.0,0.0,0.0,-0.3077023397213137
1666092001530183944,0.30000000000000016,0.0,0.0,0.0,0.0,-0.28744392419161785
1666092001580610674,0.31500000000000017,0.0,0.0,0.0,0.0,-0.28333335609662924
1666092001630260774,0.3300000000000002,0.0,0.0,0.0,0.0,-0.27983510686104046
1666092001680570599,0.3450000000000002,0.0,0.0,0.0,0.0,-0.2763368576254517
1666092001730240504,0.3600000000000002,0.0,0.0,0.0,0.0,-0.27336092047866656
1666092001780415754,0.3750000000000002,0.0,0.0,0.0,0.0,-0.27038498333188143
1666092001830290738,0.39000000000000024,0.0,0.0,0.0,0.0,-0.2689238811483141
1666092001880305335,0.40500000000000025,0.0,0.0,0.0,0.0,-0.25559398644394965
1666092001930224847,0.42000000000000026,0.0,0.0,0.0,0.0,-0.24226409173958516
1666092001980435467,0.4350000000000003,0.0,0.0,0.0,0.0,-0.24416765024436196
1666092002030317486,0.4500000000000003,0.0,0.0,0.0,0.0,-0.24643679141171088
1666092002080266402,0.4650000000000003,0.0,0.0,0.0,0.0,-0.24870593257905982
1666092002130246926,0.4800000000000003,0.0,0.0,0.0,0.0,-0.2517910261350903
1666092002181030396,0.49500000000000033,0.0,0.0,0.0,0.0,-0.2554561816677616
1666092002230373150,0.5100000000000003,0.0,0.0,0.0,0.0,-0.2597795380702548
1666092002280845646,0.5250000000000004,0.0,0.0,0.0,0.0,-0.264102894472748
1666092002330240728,0.5400000000000004,0.0,0.0,0.0,0.0,-0.2693115584358846
1666092002380231987,0.5380785465240479,0.0,0.0,0.0,0.0,-0.24120564758777618
1666092002430215469,0.5380785465240479,0.0,0.0,0.0,0.0,-0.24120564758777618
1666092002480423297,0.5530785465240479,0.0,0.0,0.0,0.0,-0.26130739250380536
1666092002530679392,0.5680785465240479,0.0,0.0,0.0,0.0,-0.28820680691386086
1666092002580291160,0.5830785465240479,0.0,0.0,0.0,0.0,-0.31510622132391636
1666092002630292571,0.5849484347335778,0.0,0.0,0.0,0.0,-0.4151062213239164
1666092002680503312,0.581450583839455,0.0,0.0,0.0,0.0,-0.5151062213239164
1666092002730176742,0.5779527329453323,0.0,0.0,0.0,0.0,-0.6151062213239163
1666092002780468986,0.572021487010855,0.0,0.0,0.0,0.0,-0.7151062213239163
1666092002830164165,0.5676726386185094,0.0,0.0,0.0,0.0,-0.8151062213239163
1666092002880219549,0.5633237902261637,0.0,0.0,0.0,0.0,-0.9151062213239163
1666092002930475015,0.5566065922530453,0.0,0.0,0.0,0.0,-1.0151062213239164
1666092002980182994,0.5498893942799269,0.0,0.0,0.0,0.0,-1.1151062213239165
1666092003030403211,0.5431721963068085,0.0,0.0,0.0,0.0,-1.2151062213239165
1666092003080375564,0.5254939198493958,0.0,0.0,0.0,0.0,-1.2217304763960313
1666092003130259873,0.5254939198493958,0.0,0.0,0.0,0.0,-1.2217304763960313
1666092003181024177,0.5205153822898865,0.0,0.0,0.0,0.0,-1.2217304763960313
1666092003230338552,0.5205153822898865,0.0,0.0,0.0,0.0,-1.2217304763960313
1666092003281036934,0.5141699657962154,0.0,0.0,0.0,0.0,-1.3217304763960314
1666092003330233216,0.5116127729415894,0.0,0.0,0.0,0.0,-1.3962634015954642
1666092003380246864,0.5116127729415894,0.0,0.0,0.0,0.0,-1.3962634015954642
1666092003431536132,0.3965354263782501,0.0,0.0,0.0,0.0,-1.2217304763960313
1666092003480580642,0.3965354263782501,0.0,0.0,0.0,0.0,-1.2217304763960313
1666092003530300678,0.41153542637825014,0.0,0.0,0.0,0.0,-1.2217304763960313
1666092003580512826,0.42653542637825015,0.0,0.0,0.0,0.0,-1.2217304763960313
1666092003630801589,0.44153542637825016,0.0,0.0,0.0,0.0,-1.2217304763960313
1666092003680476069,0.4565354263782502,0.0,0.0,0.0,0.0,-1.2217304763960313
1666092003730263758,0.4715354263782502,0.0,0.0,0.0,0.0,-1.2217304763960313
1666092003780281481,0.4865354263782502,0.0,0.0,0.0,0.0,-1.2217304763960313
1666092003830458623,0.5015354263782502,0.0,0.0,0.0,0.0,-1.2217304763960313
1666092003880200212,0.5165354263782502,0.0,0.0,0.0,0.0,-1.1662392932165309
1666092003930247772,0.5315354263782502,0.0,0.0,0.0,0.0,-1.1336356593515948
1666092003980510927,0.5465354263782503,0.0,0.0,0.0,0.0,-1.1010320254866586
1666092004030421466,0.5615354263782503,0.0,0.0,0.0,0.0,-1.0752594910967004
1666092004080375324,0.5765354263782503,0.0,0.0,0.0,0.0,-1.0494869567067422
1666092004130174985,0.5915354263782503,0.0,0.0,0.0,0.0,-1.0299019654712098
1666092004180329328,0.6065354263782503,0.0,0.0,0.0,0.0,-1.0102706171543046
1666092004230271892,0.6215354263782503,0.0,0.0,0.0,0.0,-0.9906392688373993
1666092004281614458,0.6365354263782503,0.0,0.0,0.0,0.0,-0.9499447752861025
1666092004330176026,0.6515354263782503,0.0,0.0,0.0,0.0,-0.8635657769716553
1666092004380314101,0.6665354263782504,0.0,0.0,0.0,0.0,-0.7766635931034704
1666092004430264196,0.6815354263782504,0.0,0.0,0.0,0.0,-0.7406812458308268
1666092004480489096,0.6965354263782504,0.0,0.0,0.0,0.0,-0.7046988985581831
1666092004530278495,0.7115354263782504,0.0,0.0,0.0,0.0,-0.644601945565325
1666092004580770421,0.7265354263782504,0.0,0.0,0.0,0.0,-0.5838020122739332
1666092004630257432,0.7415354263782504,0.0,0.0,0.0,0.0,-0.5230020789825415
1666092004680891025,0.7471942901611328,0.0,0.0,0.0,0.0,-0.3490658503988664
1666092004730322175,0.7621942901611328,0.0,0.0,0.0,0.0,-0.3490658503988664
1666092004780381307,0.7733262777328491,0.0,0.0,0.0,0.0,-0.3490658503988664
1666092004830190243,0.7491953372955322,0.0,0.0,0.0,0.0,-0.17453292519943345
1666092004880853304,0.7491953372955322,0.0,0.0,0.0,0.0,-0.17453292519943345
1666092004930273108,0.7491953372955322,0.0,0.0,0.0,0.0,-0.17453292519943345
1666092004980343415,0.7166470289230347,0.0,0.0,0.0,0.0,-0.17453292519943345
1666092005030252289,0.7166470289230347,0.0,0.0,0.0,0.0,-0.17453292519943345
1666092005080416351,0.6701961755752562,0.0,0.0,0.0,0.0,-0.17453292519943345
1666092005130486538,0.6401090621948242,0.0,0.0,0.0,0.0,-4.996003610813204e-16
1666092005180249668,0.6401090621948242,0.0,0.0,0.0,0.0,-4.996003610813204e-16
1666092005230297092,0.6100922226905823,0.0,0.0,0.0,0.0,-4.996003610813204e-16
1666092005280879426,0.5824674963951111,0.0,0.0,0.0,0.0,-0.050455886870622635
1666092005330287245,0.5824674963951111,0.0,0.0,0.0,0.0,-0.050455886870622635
1666092005380272041,0.5824674963951111,0.0,0.0,0.0,0.0,-0.050455886870622635
1666092005430564052,0.5561373829841614,0.0,0.0,0.0,0.0,-0.0474473237991333
1666092005480320366,0.5318537354469299,0.0,0.0,0.0,0.0,-0.04558231309056282
1666092005530208686,0.5058013200759888,0.0,0.0,0.0,0.0,-0.04397241398692131
1666092005580179355,0.5058013200759888,0.0,0.0,0.0,0.0,-0.04397241398692131
1666092005631084075,0.479561448097229,0.0,0.0,0.0,0.0,-0.04253343492746353
1666092005680312593,0.479561448097229,0.0,0.0,0.0,0.0,-0.04253343492746353
1666092005730385391,0.46009600796706324,0.0,0.0,0.0,0.0,0.057466565072536474
1666092005780349488,0.40872559969104344,0.0,0.0,0.0,0.0,-0.04253343492746353
1666092005830353897,0.39556435812537255,0.0,0.0,0.0,0.0,0.057466565072536474
1666092005880159822,0.3927052617073059,0.0,0.0,0.0,0.0,0.07919017225503922
1666092005930332056,0.24270526170730589,0.0,0.0,0.0,0.0,0.04894223061398895
1666092005980267701,0.09270526170730586,0.0,0.0,0.0,0.0,0.018694288972938695
1666092006030419494,0.0,0.0,0.0,0.0,0.0,-4.996003610813204e-16
1666092006081854257,0.0,0.0,0.0,0.0,0.0,-4.996003610813204e-16
1666092006130182666,0.0,0.0,0.0,0.0,0.0,-4.996003610813204e-16
1666092006180744324,0.0,0.0,0.0,0.0,0.0,-4.996003610813204e-16
1666092006230289928,0.0,0.0,0.0,0.0,0.0,-4.996003610813204e-16
1666092006280241324,0.0,0.0,0.0,0.0,0.0,-4.996003610813204e-16
1666092006330248055,0.0,0.0,0.0,0.0,0.0,-4.996003610813204e-16
1666092006380732235,0.0,0.0,0.0,0.0,0.0,-4.996003610813204e-16
1666092006430409230,0.0,0.0,0.0,0.0,0.0,-4.996003610813204e-16
1666092006480524414,0.0,0.0,0.0,0.0,0.0,-4.996003610813204e-16
1666092006530227062,0.0,0.0,0.0,0.0,0.0,-4.996003610813204e-16
1666092006580480126,0.0,0.0,0.0,0.0,0.0,-4.996003610813204e-16
1666092006630180053,0.0,0.0,0.0,0.0,0.0,-4.996003610813204e-16
1666092006680546844,0.0,0.0,0.0,0.0,0.0,-4.996003610813204e-16
1666092006730418639,0.0,0.0,0.0,0.0,0.0,-4.996003610813204e-16
1666092006780177593,0.0,0.0,0.0,0.0,0.0,-4.996003610813204e-16
1666092006831167228,0.0,0.0,0.0,0.0,0.0,-4.996003610813204e-16
1666092006881288026,0.0,0.0,0.0,0.0,0.0,0.0999999999999995
1666092006930379648,0.0,0.0,0.0,0.0,0.0,0.17453292519943245
1666092006980375522,0.0,0.0,0.0,0.0,0.0,0.17453292519943245
1666092007030115199,0.015,0.0,0.0,0.0,0.0,0.167170512033868
1666092007080978845,0.03,0.0,0.0,0.0,0.0,0.15980809886830358
1666092007130594280,0.045,0.0,0.0,0.0,0.0,0.15244708665394957
1666092007180565350,0.06,0.0,0.0,0.0,0.0,0.1506208947265256
1666092007230780948,0.075,0.0,0.0,0.0,0.0,0.14433592083385102
1666092007280279495,0.09,0.0,0.0,0.0,0.0,0.13805094694117645
1666092007330984173,0.105,0.0,0.0,0.0,0.0,0.132579521684384
1666092007380210689,0.12,0.0,0.0,0.0,0.0,0.12710809642759155
1666092007430201793,0.135,0.0,0.0,0.0,0.0,0.1227865106461155
1666092007480285679,0.15000000000000002,0.0,0.0,0.0,0.0,0.11846444479465396
1666092007531265665,0.16500000000000004,0.0,0.0,0.0,0.0,0.11462826029730819
1666092007580266288,0.18000000000000005,0.0,0.0,0.0,0.0,0.11079207579996242
1666092007630405235,0.19500000000000006,0.0,0.0,0.0,0.0,0.11187475609455427
1666092007680270519,0.21000000000000008,0.0,0.0,0.0,0.0,0.10879190869070154
1666092007730107448,0.2250000000000001,0.0,0.0,0.0,0.0,0.10609184611931821
1666092007780393066,0.2400000000000001,0.0,0.0,0.0,0.0,0.10339178354793488
1666092007830238484,0.2550000000000001,0.0,0.0,0.0,0.0,0.1011212425784743
1666092007880332664,0.27000000000000013,0.0,0.0,0.0,0.0,0.09885070160901371
1666092007930586564,0.28500000000000014,0.0,0.0,0.0,0.0,0.10171383920090411
1666092007980573264,0.30000000000000016,0.0,0.0,0.0,0.0,0.10002479743596457
1666092008030239933,0.31500000000000017,0.0,0.0,0.0,0.0,0.09833575567102502
1666092008080805734,0.3300000000000002,0.0,0.0,0.0,0.0,0.09701280121903269
1666092008131201022,0.3450000000000002,0.0,0.0,0.0,0.0,0.09568984676704036
1666092008180251798,0.3600000000000002,0.0,0.0,0.0,0.0,0.09475565226388787
1666092008230220747,0.3750000000000002,0.0,0.0,0.0,0.0,0.09412721765164099
1666092008280376848,0.39000000000000024,0.0,0.0,0.0,0.0,0.09349878303939411
1666092008330169978,0.40500000000000025,0.0,0.0,0.0,0.0,0.09341207092972732
1666092008380599229,0.42000000000000026,0.0,0.0,0.0,0.0,0.09409253096253113
1666092008431277279,0.4350000000000003,0.0,0.0,0.0,0.0,0.09477299099533494
1666092008480369931,0.4500000000000003,0.0,0.0,0.0,0.0,0.09666856686639556
1666092008530558382,0.4650000000000003,0.0,0.0,0.0,0.0,0.09978229338077538
1666092008580338704,0.4800000000000003,0.0,0.0,0.0,0.0,0.1044456944020592
1666092008631168577,0.49500000000000033,0.0,0.0,0.0,0.0,0.11113848387818341
1666092008680278847,0.5100000000000003,0.0,0.0,0.0,0.0,0.11783127335430763
1666092008730313890,0.5250000000000004,0.0,0.0,0.0,0.0,0.13230626034862983
1666092008782899068,0.5400000000000004,0.0,0.0,0.0,0.0,0.150872975407573
1666092008831258238,0.5472399592399597,0.0,0.0,0.0,0.0,0.15983445942401886
1666092008880395361,0.5339493155479431,0.0,0.0,0.0,0.0,0.16962642967700958
1666092008930322494,0.5339493155479431,0.0,0.0,0.0,0.0,0.16962642967700958
1666092008980583441,0.522983968257904,0.0,0.0,0.0,0.0,0.18048138916492462
1666092009030911899,0.522983968257904,0.0,0.0,0.0,0.0,0.18048138916492462
1666092009080276691,0.4996174871921539,0.0,0.0,0.0,0.0,0.20628571510314941
1666092009130443027,0.5001860857009888,0.0,0.0,0.0,0.0,0.20633457601070404
1666092009180808906,0.48647174239158625,0.0,0.0,0.0,0.0,0.21633730828762054
1666092009230167209,0.48647174239158625,0.0,0.0,0.0,0.0,0.21633730828762054
1666092009280229373,0.5014717423915862,0.0,0.0,0.0,0.0,0.23039074549006355
1666092009330208916,0.5164717423915862,0.0,0.0,0.0,0.0,0.24783365797972617
1666092009380601764,0.5314717423915862,0.0,0.0,0.0,0.0,0.27331437583950763
1666092009430649650,0.5464717423915862,0.0,0.0,0.0,0.0,0.2987950936992891
1666092009480516380,0.433906614780426,0.0,0.0,0.0,0.0,0.2483663111925125
1666092009530695766,0.4282598197460174,0.0,0.0,0.0,0.0,0.2558063566684723
1666092009580569591,0.4432598197460174,0.0,0.0,0.0,0.0,0.2663486822123545
1666092009630645324,0.4582598197460174,0.0,0.0,0.0,0.0,0.2768910077562368
1666092009680432612,0.3936858475208282,0.0,0.0,0.0,0.0,0.2560952305793762
1666092009730446384,0.39199722920141283,0.0,0.0,0.0,0.0,0.3560952305793762
1666092009781806787,0.3886004041567481,0.0,0.0,0.0,0.0,0.4560952305793762
1666092009830262483,0.38520357911208347,0.0,0.0,0.0,0.0,0.5560952305793762
1666092009880423274,0.3803040551161237,0.0,0.0,0.0,0.0,0.6560952305793761
1666092009930422036,0.3733298633979637,0.0,0.0,0.0,0.0,0.7560952305793761
1666092009981075576,0.36466646361307864,0.0,0.0,0.0,0.0,0.8560952305793761
