%time,field.x,field.y,field.z
1666088399388091766,8.529208833351732e-05,0.0,0.0
1666088399407945229,8.529208833351732e-05,0.0,0.0
1666088399428007282,8.529208833351732e-05,0.0,0.0
1666088399448134743,8.529208833351732e-05,0.0,0.0
1666088399469016240,8.529208833351732e-05,0.0,0.0
1666088399487932830,8.529208833351732e-05,0.0,0.0
1666088399507893818,8.529208833351732e-05,0.0,0.0
1666088399527842752,8.529208833351732e-05,0.0,0.0
1666088399547837968,8.529208833351732e-05,0.0,0.0
1666088399588031835,8.529208833351732e-05,0.0,0.0
1666088399588041084,8.529208833351732e-05,0.0,0.0
1666088399632025906,8.529208833351732e-05,0.0,0.0
1666088399632034021,8.529208833351732e-05,0.0,0.0
1666088399676063504,8.529208833351732e-05,0.0,0.0
1666088399676071102,8.529208833351732e-05,0.0,0.0
1666088399720032382,8.529208833351732e-05,0.0,0.0
1666088399720041396,8.529208833351732e-05,0.0,0.0
1666088399768036198,8.529208833351732e-05,0.0,0.0
1666088399768050065,8.529208833351732e-05,0.0,0.0
1666088399812078592,0.00017058417666703464,0.0,0.0
1666088399812095178,0.00029852230916731063,0.0,0.0
1666088399812103881,0.00046910648583434525,0.0,0.0
1666088399856086251,0.0006823367066681386,0.0,0.0
1666088399856108566,0.000895566914511204,-7.443138685463627e-08,0.0
1666088399867698993,0.001066151067794929,-1.637490488128522e-07,0.0
1666088399887717095,0.001364673304214166,-3.7215691930863447e-07,0.0
1666088399928026947,0.0015779034730850497,-5.210196839484789e-07,0.0
1666088399976026198,0.00170584157440758,-6.103373427323856e-07,0.0
1666088399976034606,0.00170584157440758,-6.103373427323856e-07,0.0
1666088399976046132,0.00170584157440758,-6.103373427323856e-07,0.0
1666088400020072128,0.00170584157440758,-6.103373427323856e-07,0.0
1666088400020083005,0.00170584157440758,-6.103373427323856e-07,0.0
1666088400027715267,0.00170584157440758,-6.103373427323856e-07,0.0
1666088400047611009,0.00170584157440758,-6.103373427323856e-07,0.0
1666088400092023410,0.00170584157440758,-6.103373427323856e-07,0.0
1666088400092036396,0.00170584157440758,-6.103373427323856e-07,0.0
1666088400136114770,0.00170584157440758,-6.103373427323856e-07,0.0
1666088400136131830,0.00170584157440758,-6.103373427323856e-07,0.0
1666088400180071636,0.00170584157440758,-6.103373427323856e-07,0.0
1666088400180087592,0.00170584157440758,-6.103373427323856e-07,0.0
1666088400224044364,0.00170584157440758,-6.103373427323856e-07,0.0
1666088400224056351,0.00170584157440758,-6.103373427323856e-07,0.0
1666088400268062887,0.00170584157440758,-6.103373427323856e-07,0.0
1666088400268073361,0.00170584157440758,-6.103373427323856e-07,0.0
1666088400316031631,0.00170584157440758,-6.103373427323856e-07,0.0
1666088400316040315,0.00170584157440758,-6.103373427323856e-07,0.0
1666088400316047257,0.00170584157440758,-6.103373427323856e-07,0.0
1666088400360058435,0.00170584157440758,-6.103373427323856e-07,0.0
1666088400360063923,0.00170584157440758,-6.103373427323856e-07,0.0
1666088400368514453,0.00170584157440758,-6.103373427323856e-07,0.0
1666088400388545735,0.00170584157440758,-6.103373427323856e-07,0.0
1666088400436037712,0.00170584157440758,-6.103373427323856e-07,0.0
1666088400436048783,0.00170584157440758,-6.103373427323856e-07,0.0
1666088400484032691,0.00170584157440758,-6.103373427323856e-07,0.0
1666088400484043140,0.00170584157440758,-6.103373427323856e-07,0.0
1666088400532022129,0.00170584157440758,-6.103373427323856e-07,0.0
1666088400532033412,0.00170584157440758,-6.103373427323856e-07,0.0
1666088400532040455,0.00170584157440758,-6.103373427323856e-07,0.0
1666088400576074582,0.00170584157440758,-6.103373427323856e-07,0.0
1666088400576093069,0.00170584157440758,-6.103373427323856e-07,0.0
1666088400588425411,0.00170584157440758,-6.103373427323856e-07,0.0
1666088400608398055,0.00170584157440758,-6.103373427323856e-07,0.0
1666088400656021529,0.00170584157440758,-6.103373427323856e-07,0.0
1666088400656030277,0.00170584157440758,-6.103373427323856e-07,0.0
1666088400704022134,0.00170584157440758,-6.103373427323856e-07,0.0
1666088400704032877,0.00170584157440758,-6.103373427323856e-07,0.0
1666088400748064825,0.00170584157440758,-6.103373427323856e-07,0.0
1666088400748077636,0.00170584157440758,-6.103373427323856e-07,0.0
1666088400792077915,0.00170584157440758,-6.103373427323856e-07,0.0
1666088400792088609,0.00170584157440758,-6.103373427323856e-07,0.0
1666088400792094070,0.00170584157440758,-6.103373427323856e-07,0.0
1666088400836061456,0.00170584157440758,-6.103373427323856e-07,0.0
1666088400836066640,0.00170584157440758,-6.103373427323856e-07,0.0
1666088400849343778,0.00170584157440758,-6.103373427323856e-07,0.0
1666088400868345786,0.00170584157440758,-6.103373427323856e-07,0.0
1666088400912060973,0.00170584157440758,-6.103373427323856e-07,0.0
1666088400912066066,0.00170584157440758,-6.103373427323856e-07,0.0
1666088400960103788,0.00170584157440758,-6.103373427323856e-07,0.0
1666088400960111969,0.00170584157440758,-6.103373427323856e-07,0.0
1666088401008030827,0.00170584157440758,-6.103373427323856e-07,0.0
1666088401008039881,0.00170584157440758,-6.103373427323856e-07,0.0
1666088401056037796,0.00170584157440758,-6.103373427323856e-07,0.0
1666088401056042783,0.00170584157440758,-6.103373427323856e-07,0.0
1666088401056051816,0.00170584157440758,-6.103373427323856e-07,0.0
1666088401100019658,0.00170584157440758,-6.103373427323856e-07,0.0
1666088401100024251,0.00170584157440758,-6.103373427323856e-07,0.0
1666088401108199456,0.00170584157440758,-6.103373427323856e-07,0.0
1666088401128203461,0.00170584157440758,-6.103373427323856e-07,0.0
1666088401172065111,0.00170584157440758,-6.103373427323856e-07,0.0
1666088401172075279,0.00170584157440758,-6.103373427323856e-07,0.0
1666088401216035320,0.00170584157440758,-6.103373427323856e-07,0.0
1666088401216044260,0.00170584157440758,-6.103373427323856e-07,0.0
1666088401260029853,0.00170584157440758,-6.103373427323856e-07,0.0
1666088401260035364,0.00170584157440758,-6.103373427323856e-07,0.0
1666088401304057058,0.00170584157440758,-6.103373427323856e-07,0.0
1666088401304066926,0.00170584157440758,-6.103373427323856e-07,0.0
1666088401348060390,0.00170584157440758,-6.103373427323856e-07,0.0
1666088401348070149,0.00170584157440758,-6.103373427323856e-07,0.0
1666088401396027646,0.00170584157440758,-6.103373427323856e-07,0.0
1666088401396035685,0.00170584157440758,-6.103373427323856e-07,0.0
1666088401396038970,0.00170584157440758,-6.103373427323856e-07,0.0
1666088401444029838,0.00170584157440758,-6.103373427323856e-07,0.0
1666088401444034775,0.00170584157440758,-6.103373427323856e-07,0.0
1666088401449040022,0.00170584157440758,-6.103373427323856e-07,0.0
1666088401469079113,0.00170584157440758,-6.103373427323856e-07,0.0
1666088401512103532,0.00170584157440758,-6.103373427323856e-07,0.0
1666088401512109363,0.00170584157440758,-6.103373427323856e-07,0.0
1666088401556027836,0.00170584157440758,-6.103373427323856e-07,0.0
1666088401556036299,0.00170584157440758,-6.103373427323856e-07,0.0
1666088401600027472,0.00170584157440758,-6.103373427323856e-07,0.0
1666088401600036297,0.00170584157440758,-6.103373427323856e-07,0.0
1666088401644094547,0.00170584157440758,-6.103373427323856e-07,0.0
1666088401644124770,0.00170584157440758,-6.103373427323856e-07,0.0
1666088401688052135,0.00170584157440758,-6.103373427323856e-07,0.0
1666088401688064439,0.00170584157440758,-6.103373427323856e-07,0.0
1666088401732063385,0.00170584157440758,-6.103373427323856e-07,0.0
1666088401732076830,0.00170584157440758,-6.103373427323856e-07,0.0
1666088401732082243,0.00170584157440758,-6.103373427323856e-07,0.0
1666088401776076689,0.00170584157440758,-6.103373427323856e-07,0.0
1666088401776091777,0.00170584157440758,-6.103373427323856e-07,0.0
1666088401788948326,0.00170584157440758,-6.103373427323856e-07,0.0
1666088401808922019,0.00170584157440758,-6.103373427323856e-07,0.0
1666088401852030898,0.00170584157440758,-6.103373427323856e-07,0.0
1666088401852041442,0.00170584157440758,-6.103373427323856e-07,0.0
1666088401896041989,0.00170584157440758,-6.103373427323856e-07,0.0
1666088401896051375,0.00170584157440758,-6.103373427323856e-07,0.0
1666088401940033338,0.00170584157440758,-6.103373427323856e-07,0.0
1666088401940042934,0.00170584157440758,-6.103373427323856e-07,0.0
1666088401984068780,0.00170584157440758,-6.103373427323856e-07,0.0
1666088401984078388,0.00170584157440758,-6.103373427323856e-07,0.0
1666088402032052461,0.00170584157440758,-6.103373427323856e-07,0.0
1666088402032064657,0.00170584157440758,-6.103373427323856e-07,0.0
1666088402032069226,0.00170584157440758,-6.103373427323856e-07,0.0
1666088402076084487,0.00170584157440758,-6.103373427323856e-07,0.0
1666088402076097349,0.00170584157440758,-6.103373427323856e-07,0.0
1666088402088835908,0.00170584157440758,-6.103373427323856e-07,0.0
1666088402109828300,0.00170584157440758,-6.103373427323856e-07,0.0
1666088402152073739,0.00170584157440758,-6.103373427323856e-07,0.0
1666088402152082720,0.00170584157440758,-6.103373427323856e-07,0.0
1666088402196033708,0.00170584157440758,-6.103373427323856e-07,0.0
1666088402196042885,0.00170584157440758,-6.103373427323856e-07,0.0
1666088402240092120,0.00170584157440758,-6.103373427323856e-07,0.0
1666088402240106702,0.00170584157440758,-6.103373427323856e-07,0.0
1666088402284087751,0.00170584157440758,-6.103373427323856e-07,0.0
1666088402284098589,0.00170584157440758,-6.103373427323856e-07,0.0
1666088402328077931,0.00170584157440758,-6.103373427323856e-07,0.0
1666088402328085929,0.00170584157440758,-6.103373427323856e-07,0.0
1666088402372040431,0.00170584157440758,-6.103373427323856e-07,0.0
1666088402372049599,0.00170584157440758,-6.103373427323856e-07,0.0
1666088402372052922,0.00170584157440758,-6.103373427323856e-07,0.0
1666088402416050782,0.00170584157440758,-6.103373427323856e-07,0.0
1666088402416062668,0.00170584157440758,-6.103373427323856e-07,0.0
1666088402429680940,0.00170584157440758,-6.103373427323856e-07,0.0
1666088402448624716,0.00170584157440758,-6.103373427323856e-07,0.0
1666088402492041050,0.00170584157440758,-6.103373427323856e-07,0.0
1666088402492052290,0.00170584157440758,-6.103373427323856e-07,0.0
1666088402536044070,0.00170584157440758,-6.103373427323856e-07,0.0
1666088402536049736,0.00170584157440758,-6.103373427323856e-07,0.0
1666088402580038615,0.00170584157440758,-6.103373427323856e-07,0.0
1666088402580044026,0.00170584157440758,-6.103373427323856e-07,0.0
1666088402624081015,0.00170584157440758,-6.103373427323856e-07,0.0
1666088402624096121,0.00170584157440758,-6.103373427323856e-07,0.0
1666088402672121053,0.00170584157440758,-6.103373427323856e-07,0.0
1666088402672137584,0.00170584157440758,-6.103373427323856e-07,0.0
1666088402672146286,0.00170584157440758,-6.103373427323856e-07,0.0
1666088402716303093,0.00170584157440758,-6.103373427323856e-07,0.0
1666088402716329040,0.00170584157440758,-6.103373427323856e-07,0.0
1666088402738503456,0.00166319554647923,-5.731216532728877e-07,0.0
1666088402749745631,0.0016205495185508802,-5.359059638133898e-07,0.0
1666088402796768000,0.0016205495185508802,-5.359059638133898e-07,0.0
1666088402796781216,0.0016205495185508802,-5.359059638133898e-07,0.0
1666088402844121716,0.0016205495185508802,-5.359059638133898e-07,0.0
1666088402844143636,0.0016205495185508802,-5.359059638133898e-07,0.0
1666088402892089293,0.0016205495185508802,-5.359059638133898e-07,0.0
1666088402892110576,0.0016205495185508802,-5.359059638133898e-07,0.0
1666088402892123871,0.0016205495185508802,-5.359059638133898e-07,0.0
1666088402936183017,0.0016205495185508802,-5.359059638133898e-07,0.0
1666088402936212550,0.0016205495185508802,-5.359059638133898e-07,0.0
1666088402951061687,0.0016205495185508802,-5.359059638133898e-07,0.0
1666088402971120209,0.0016205495185508802,-5.359059638133898e-07,0.0
1666088403012205441,0.0016205495185508802,-5.359059638133898e-07,0.0
1666088403012245071,0.0016205495185508802,-5.359059638133898e-07,0.0
1666088403056109704,0.0016205495185508802,-5.359059638133898e-07,0.0
1666088403056132883,0.0016205495185508802,-5.359059638133898e-07,0.0
1666088403100085511,0.0016205495185508802,-5.359059638133898e-07,0.0
1666088403100102295,0.0016205495185508802,-5.359059638133898e-07,0.0
1666088403144215191,0.0016205495185508802,-5.359059638133898e-07,0.0
1666088403144246773,0.0016205495185508802,-5.359059638133898e-07,0.0
1666088403192123057,0.0016205495185508802,-5.359059638133898e-07,0.0
1666088403192145736,0.0016205495185508802,-5.359059638133898e-07,0.0
1666088403192166582,0.0016205495185508802,-5.359059638133898e-07,0.0
1666088403236073806,0.0016205495185508802,-5.359059638133898e-07,0.0
1666088403236087939,0.0016205495185508802,-5.359059638133898e-07,0.0
1666088403249601650,0.0016205495185508802,-5.359059638133898e-07,0.0
1666088403270137534,0.0016205495185508802,-5.359059638133898e-07,0.0
1666088403312059365,0.0016205495185508802,-5.359059638133898e-07,0.0
1666088403312072017,0.0016205495185508802,-5.359059638133898e-07,0.0
1666088403356053984,0.0016205495185508802,-5.359059638133898e-07,0.0
1666088403356066416,0.0016205495185508802,-5.359059638133898e-07,0.0
1666088403400059580,0.0015779034906225303,-4.986902743538919e-07,0.0
1666088403400072182,0.0015352574626941804,-4.614745848943941e-07,0.0
1666088403448044898,0.0015352574626941804,-4.614745848943941e-07,0.0
1666088403448057523,0.0015352574626941804,-4.614745848943941e-07,0.0
1666088403492053689,0.0015352574626941804,-4.614745848943941e-07,0.0
1666088403492060682,0.0015352574626941804,-4.614745848943941e-07,0.0
1666088403492072393,0.0015352574626941804,-4.614745848943941e-07,0.0
1666088403536041733,0.0015352574626941804,-4.614745848943941e-07,0.0
1666088403536053441,0.0015352574626941804,-4.614745848943941e-07,0.0
1666088403549265934,0.0015352574626941804,-4.614745848943941e-07,0.0
1666088403570255483,0.0015352574626941804,-4.614745848943941e-07,0.0
1666088403612051052,0.0015352574626941804,-4.614745848943941e-07,0.0
1666088403612064338,0.0015352574626941804,-4.614745848943941e-07,0.0
1666088403656046288,0.0015352574626941804,-4.614745848943941e-07,0.0
1666088403656059647,0.0015352574626941804,-4.614745848943941e-07,0.0
1666088403700039345,0.0015352574626941804,-4.614745848943941e-07,0.0
1666088403700051376,0.0015352574626941804,-4.614745848943941e-07,0.0
1666088403744068076,0.0015352574626941804,-4.614745848943941e-07,0.0
1666088403744078183,0.0015352574626941804,-4.614745848943941e-07,0.0
1666088403788050976,0.0015352574626941804,-4.614745848943941e-07,0.0
1666088403788062482,0.0015352574626941804,-4.614745848943941e-07,0.0
1666088403832058496,0.0015352574626941804,-4.614745848943941e-07,0.0
1666088403832071333,0.0015352574626941804,-4.614745848943941e-07,0.0
1666088403832090982,0.0015352574626941804,-4.614745848943941e-07,0.0
1666088403876165219,0.0015352574626941804,-4.614745848943941e-07,0.0
1666088403876178962,0.0015352574626941804,-4.614745848943941e-07,0.0
1666088403890545498,0.0015352574626941804,-4.614745848943941e-07,0.0
1666088403911103489,0.0015352574626941804,-4.614745848943941e-07,0.0
1666088403952094018,0.0015352574626941804,-4.614745848943941e-07,0.0
1666088403952104690,0.0015352574626941804,-4.614745848943941e-07,0.0
1666088403996188285,0.0015352574626941804,-4.614745848943941e-07,0.0
1666088403996215110,0.0015352574626941804,-4.614745848943941e-07,0.0
1666088404040268317,0.0015352574626941804,-4.614745848943941e-07,0.0
1666088404040301945,0.0015352574626941804,-4.614745848943941e-07,0.0
1666088404088048300,0.0015352574626941804,-4.614745848943941e-07,0.0
1666088404088060743,0.0015352574626941804,-4.614745848943941e-07,0.0
1666088404132052865,0.0015352574626941804,-4.614745848943941e-07,0.0
1666088404132064407,0.0015352574626941804,-4.614745848943941e-07,0.0
1666088404132069326,0.0015352574626941804,-4.614745848943941e-07,0.0
1666088404176082148,0.0015352574626941804,-4.614745848943941e-07,0.0
1666088404176096602,0.0015352574626941804,-4.614745848943941e-07,0.0
1666088404190298789,0.0015352574626941804,-4.614745848943941e-07,0.0
1666088404211095243,0.0015352574626941804,-4.614745848943941e-07,0.0
1666088404252061340,0.0015352574626941804,-4.614745848943941e-07,0.0
1666088404252081720,0.0015352574626941804,-4.614745848943941e-07,0.0
1666088404296067129,0.0015352574626941804,-4.614745848943941e-07,0.0
1666088404296095135,0.0015352574626941804,-4.614745848943941e-07,0.0
1666088404340078497,0.0015352574626941804,-4.614745848943941e-07,0.0
1666088404340095799,0.0015352574626941804,-4.614745848943941e-07,0.0
1666088404384090715,0.0015352574626941804,-4.614745848943941e-07,0.0
1666088404384109060,0.0015352574626941804,-4.614745848943941e-07,0.0
1666088404428087708,0.0015352574626941804,-4.614745848943941e-07,0.0
1666088404428101377,0.0015352574626941804,-4.614745848943941e-07,0.0
1666088404472060375,0.0015352574626941804,-4.614745848943941e-07,0.0
1666088404472072940,0.0015352574626941804,-4.614745848943941e-07,0.0
1666088404472078034,0.0015352574626941804,-4.614745848943941e-07,0.0
1666088404516102974,0.0015352574626941804,-4.614745848943941e-07,0.0
1666088404516117060,0.0015352574626941804,-4.614745848943941e-07,0.0
1666088404530978521,0.0015352574626941804,-4.614745848943941e-07,0.0
1666088404551053605,0.0015352574626941804,-4.614745848943941e-07,0.0
1666088404592090110,0.0015352574626941804,-4.614745848943941e-07,0.0
1666088404592104200,0.0015352574626941804,-4.614745848943941e-07,0.0
1666088404636090377,0.0015352574626941804,-4.614745848943941e-07,0.0
1666088404636099728,0.0015352574626941804,-4.614745848943941e-07,0.0
1666088404680061087,0.0015352574626941804,-4.614745848943941e-07,0.0
1666088404680077214,0.0015352574626941804,-4.614745848943941e-07,0.0
1666088404724080090,0.0015352574626941804,-4.614745848943941e-07,0.0
1666088404724094587,0.0015352574626941804,-4.614745848943941e-07,0.0
1666088404768405395,0.0015352574626941804,-4.614745848943941e-07,0.0
1666088404768445851,0.0015352574626941804,-4.614745848943941e-07,0.0
1666088404816073789,0.0015352574626941804,-4.614745848943941e-07,0.0
1666088404816085970,0.0015352574626941804,-4.614745848943941e-07,0.0
1666088404816090066,0.0015352574626941804,-4.614745848943941e-07,0.0
1666088404860073895,0.0015352574626941804,-4.614745848943941e-07,0.0
1666088404860086969,0.0015352574626941804,-4.614745848943941e-07,0.0
1666088404871362223,0.0015352574626941804,-4.614745848943941e-07,0.0
1666088404890923253,0.0015352574626941804,-4.614745848943941e-07,0.0
1666088404932080849,0.0015352574626941804,-4.614745848943941e-07,0.0
1666088404932097431,0.0015352574626941804,-4.614745848943941e-07,0.0
1666088404976057690,0.0015352574626941804,-4.614745848943941e-07,0.0
1666088404976070978,0.0015352574626941804,-4.614745848943941e-07,0.0
1666088405020056039,0.0015352574626941804,-4.614745848943941e-07,0.0
1666088405020064674,0.0015352574626941804,-4.614745848943941e-07,0.0
1666088405068147813,0.0015352574626941804,-4.614745848943941e-07,0.0
1666088405068173049,0.0015352574626941804,-4.614745848943941e-07,0.0
1666088405112107050,0.0015352574626941804,-4.614745848943941e-07,0.0
1666088405112126718,0.0015352574626941804,-4.614745848943941e-07,0.0
1666088405112152989,0.0015352574626941804,-4.614745848943941e-07,0.0
1666088405156099945,0.0015352574626941804,-4.614745848943941e-07,0.0
1666088405156130714,0.0015352574626941804,-4.614745848943941e-07,0.0
1666088405171026216,0.0015352574626941804,-4.614745848943941e-07,0.0
1666088405190969884,0.0015352574626941804,-4.614745848943941e-07,0.0
1666088405232104191,0.0015352574626941804,-4.614745848943941e-07,0.0
1666088405232118820,0.0015352574626941804,-4.614745848943941e-07,0.0
1666088405276071098,0.0015352574626941804,-4.614745848943941e-07,0.0
1666088405276086106,0.0015352574626941804,-4.614745848943941e-07,0.0
1666088405320085227,0.0015352574626941804,-4.614745848943941e-07,0.0
1666088405320098913,0.0015352574626941804,-4.614745848943941e-07,0.0
1666088405364091356,0.0015352574626941804,-4.614745848943941e-07,0.0
1666088405364107371,0.0015352574626941804,-4.614745848943941e-07,0.0
