%time,field.x,field.y,field.z
1663844290679067325,1.4350850582122803,0.08581048250198364,0.0
1663844290749210464,1.4384799003601074,0.08781860023736954,0.0
1663844290841913844,1.4083361625671387,0.08513536304235458,0.0
1663844290909021985,1.4125436544418335,0.08694927394390106,0.0
1663844290979520692,1.4206578731536865,0.08399896323680878,0.0
1663844291163320001,1.4273260831832886,0.08314637094736099,0.0
1663844291272956924,1.4297764301300049,0.08270912617444992,0.0
1663844291275631947,1.430544376373291,0.08242296427488327,0.0
1663844291358774335,1.431261658668518,0.08022792637348175,0.0
1663844291560041276,1.4118523597717285,0.07878750562667847,0.0
1663844291660186299,1.3918888568878174,0.07784739136695862,0.0
1663844291665155861,1.374507188796997,0.07710294425487518,0.0
1663844291780881939,1.3654521703720093,0.07651259750127792,0.0
1663844291861055637,1.353297472000122,0.07445351034402847,0.0
1663844291988627996,1.3371556997299194,0.07410681992769241,0.0
1663844292077728079,1.3151519298553467,0.07310069352388382,0.0
1663844292161173820,1.2926183938980103,0.07130317389965057,0.0
1663844292356695424,1.271779179573059,0.06880027055740356,0.0
1663844292358597967,1.2569974660873413,0.06629551202058792,0.0
1663844292462594867,1.2432053089141846,0.06648215651512146,0.0
1663844292657019938,1.2284749746322632,0.06612987071275711,0.0
1663844292658996916,1.219103455543518,0.06671801209449768,0.0
1663844292795815512,1.214603304862976,0.06737852841615677,0.0
1663844292865191072,1.2075523138046265,0.07032293826341629,0.0
1663844292966941673,1.2068668603897095,0.07648354768753052,0.0
1663844293076198771,1.2095388174057007,0.0819726511836052,0.0
1663844293159057888,1.21841561794281,0.08839869499206543,0.0
1663844293291613768,1.235901951789856,0.0965883806347847,0.0
1663844293370768039,1.2618848085403442,0.10861727595329285,0.0
1663844293460230960,1.2889158725738525,0.12019602954387665,0.0
1663844293575284480,1.3108887672424316,0.13376030325889587,0.0
1663844293686707100,1.340476632118225,0.15012885630130768,0.0
1663844293783353770,1.3673385381698608,0.16813167929649353,0.0
1663844293878466027,1.3961429595947266,0.1849866807460785,0.0
1663844294012613830,1.4304344654083252,0.202874094247818,0.0
1663844294090692443,1.4727792739868164,0.22459150850772858,0.0
1663844294238156940,1.5130573511123657,0.24812887609004974,0.0
1663844294240347481,1.547895073890686,0.2731762230396271,0.0
1663844294325975729,1.5788142681121826,0.3018759787082672,0.0
1663844294459806428,1.6054824590682983,0.3314923048019409,0.0
1663844294536970830,1.623674750328064,0.36185407638549805,0.0
1663844294630635533,1.6409907341003418,0.38890203833580017,0.0
1663844294764723174,1.6552269458770752,0.41812315583229065,0.0
1663844294830194271,1.6660876274108887,0.4531046748161316,0.0
1663844295008362513,1.6776883602142334,0.48822855949401855,0.0
1663844295050511413,1.6783066987991333,0.5175215005874634,0.0
1663844295109375450,1.6727499961853027,0.5420085191726685,0.0
1663844295194685392,1.6641699075698853,0.5645533204078674,0.0
1663844295334582060,1.65463387966156,0.584513247013092,0.0
1663844295401743433,1.6420834064483643,0.6001375317573547,0.0
1663844295477026247,1.630416989326477,0.6135267615318298,0.0
1663844295623872078,1.6173999309539795,0.6269503235816956,0.0
1663844295698459128,1.6116846799850464,0.6449602246284485,0.0
1663844295776519038,1.599768042564392,0.6597855687141418,0.0
1663844295868335114,1.5851221084594727,0.6728956699371338,0.0
1663844295990069492,1.567233681678772,0.6857960224151611,0.0
1663844296138657925,1.5486714839935303,0.697407066822052,0.0
1663844296181998664,1.5332814455032349,0.7073454856872559,0.0
1663844296269583154,1.5164328813552856,0.7162542939186096,0.0
1663844296342466210,1.499696969985962,0.7230651378631592,0.0
1663844296511949102,1.4856812953948975,0.7308443188667297,0.0
1663844296682349161,1.470798134803772,0.73707515001297,0.0
1663844296683667967,1.4579715728759766,0.7404135465621948,0.0
1663844296884716707,1.4484294652938843,0.7439574003219604,0.0
1663844296987026534,1.4405155181884766,0.7516432404518127,0.0
1663844297103095915,1.4359265565872192,0.7635624408721924,0.0
1663844297283544514,1.4333264827728271,0.7797179818153381,0.0
1663844297285094226,1.4295212030410767,0.7957420945167542,0.0
1663844297482407770,1.4246408939361572,0.8105831742286682,0.0
1663844297526086435,1.4173059463500977,0.8270723223686218,0.0
1663844297600431985,1.410399317741394,0.8442874550819397,0.0
1663844297766647772,1.4028897285461426,0.8695510625839233,0.0
1663844297879814662,1.395204782485962,0.8953700065612793,0.0
1663844297967983638,1.389214277267456,0.9220927357673645,0.0
1663844298077615398,1.382934331893921,0.9486004114151001,0.0
1663844298185130986,1.377767562866211,0.9724522233009338,0.0
1663844298320519950,1.3683550357818604,0.996290385723114,0.0
1663844298444984188,1.3636574745178223,1.0278470516204834,0.0
1663844298541941581,1.3591991662979126,1.0558820962905884,0.0
1663844298644120378,1.3564810752868652,1.0856459140777588,0.0
1663844298867709180,1.35335373878479,1.1120624542236328,0.0
1663844298877715608,1.35244619846344,1.1317857503890991,0.0
1663844298964099847,1.3492475748062134,1.1461976766586304,0.0
1663844299083928414,1.3464630842208862,1.1546757221221924,0.0
1663844299187288520,1.3465349674224854,1.1564685106277466,0.0
1663844299307125251,1.3502920866012573,1.1595447063446045,0.0
1663844299404620071,1.3593947887420654,1.16311776638031,0.0
1663844299542241183,1.360351324081421,1.1632088422775269,0.0
1663844299631737547,1.362160325050354,1.1566284894943237,0.0
1663844299836573565,1.3630996942520142,1.1496690511703491,0.0
1663844299842328218,1.3629831075668335,1.1422393321990967,0.0
1663844299936722104,1.3627769947052002,1.1346344947814941,0.0
1663844300027565294,1.362621784210205,1.1324316263198853,0.0
1663844300144886464,1.3559837341308594,1.1264885663986206,0.0
1663844300227136612,1.3517099618911743,1.129028558731079,0.0
1663844300429297694,1.3453046083450317,1.1340044736862183,0.0
1663844300431067771,1.3325103521347046,1.1398711204528809,0.0
1663844300575355555,1.316335916519165,1.1477130651474,0.0
1663844300649169407,1.3024637699127197,1.1497606039047241,0.0
1663844300813946891,1.2840495109558105,1.1553387641906738,0.0
1663844300858027077,1.2643139362335205,1.1653199195861816,0.0
1663844300901993431,1.240769624710083,1.1804736852645874,0.0
1663844301041496800,1.2202259302139282,1.2074177265167236,0.0
1663844301114471252,1.191286325454712,1.2341315746307373,0.0
1663844301206517379,1.16211998462677,1.2595810890197754,0.0
1663844301353779602,1.1350300312042236,1.2862813472747803,0.0
1663844301501162896,1.1080968379974365,1.3099253177642822,0.0
1663844301548002248,1.0817832946777344,1.3283039331436157,0.0
1663844301690609195,1.060271978378296,1.3549633026123047,0.0
1663844301727346693,1.0416533946990967,1.380028486251831,0.0
1663844301872314261,1.0205506086349487,1.4119160175323486,0.0
1663844301917679586,0.997402548789978,1.446865439414978,0.0
1663844302052997418,0.9773720502853394,1.4792791604995728,0.0
1663844302101261208,0.9634386897087097,1.505345106124878,0.0
1663844302199407058,0.9474430084228516,1.531994104385376,0.0
1663844302295065020,0.9359458088874817,1.5522775650024414,0.0
1663844302374796257,0.9329414963722229,1.5697706937789917,0.0
1663844302539841927,0.9453493356704712,1.5880751609802246,0.0
1663844302627995756,0.9664793610572815,1.598515510559082,0.0
1663844302688152591,0.9707086682319641,1.614530324935913,0.0
1663844302808500273,0.9845547080039978,1.625967264175415,0.0
1663844302914854437,1.0171090364456177,1.617319107055664,0.0
1663844302957714087,1.0319262742996216,1.6252412796020508,0.0
1663844303014275466,1.0518475770950317,1.6343202590942383,0.0
1663844303196862657,1.0747977495193481,1.6452717781066895,0.0
1663844303309227477,1.1003397703170776,1.6548949480056763,0.0
1663844303349762138,1.1375905275344849,1.678207278251648,0.0
1663844303396587243,1.203750491142273,1.6727287769317627,0.0
1663844303586846179,1.257637858390808,1.6674045324325562,0.0
1663844303592878710,1.2883917093276978,1.683944582939148,0.0
1663844303693838742,1.3337448835372925,1.6813884973526,0.0
1663844303802414988,1.3669861555099487,1.6852473020553589,0.0
1663844303896025776,1.4082157611846924,1.681849718093872,0.0
1663844304084318469,1.4387248754501343,1.6821305751800537,0.0
1663844304176269763,1.473265528678894,1.674518346786499,0.0
1663844304180569592,1.5018259286880493,1.6645245552062988,0.0
1663844304307033209,1.5340205430984497,1.647400140762329,0.0
1663844304368459571,1.5586358308792114,1.6259046792984009,0.0
1663844304467920795,1.578662395477295,1.601869821548462,0.0
1663844304551697802,1.5956205129623413,1.5739433765411377,0.0
1663844304660811638,1.6085084676742554,1.5437110662460327,0.0
1663844304832671055,1.619316577911377,1.508935809135437,0.0
1663844304919017968,1.6255085468292236,1.4678133726119995,0.0
1663844305023117911,1.625187635421753,1.4304733276367188,0.0
1663844305106095767,1.6215095520019531,1.3924977779388428,0.0
1663844305205285651,1.5985703468322754,1.3668688535690308,0.0
1663844305377592285,1.5698086023330688,1.3409485816955566,0.0
1663844305379234257,1.5289456844329834,1.3207708597183228,0.0
1663844305474057560,1.4856314659118652,1.3016767501831055,0.0
1663844305570287809,1.4301531314849854,1.280763030052185,0.0
1663844305727889338,1.3673815727233887,1.261047124862671,0.0
1663844305832809196,1.3058804273605347,1.2399394512176514,0.0
1663844305939640026,1.2483359575271606,1.2081795930862427,0.0
1663844306086140928,1.1931930780410767,1.1739747524261475,0.0
1663844306158862987,1.1417224407196045,1.14042067527771,0.0
1663844306246403775,1.096409797668457,1.1057918071746826,0.0
1663844306377687902,1.0562357902526855,1.070387840270996,0.0
1663844306451284943,1.0198501348495483,1.0312026739120483,0.0
1663844306535070279,0.9855058789253235,0.9942256808280945,0.0
1663844306733200792,0.9540964365005493,0.9617539048194885,0.0
1663844306838632211,0.9258821606636047,0.9289249181747437,0.0
1663844306842584203,0.904639720916748,0.8948612809181213,0.0
1663844307034670636,0.8926185965538025,0.8525964021682739,0.0
1663844307036162493,0.8895572423934937,0.8033259510993958,0.0
1663844307150817530,0.8798978328704834,0.7523559331893921,0.0
1663844307251102738,0.8776259422302246,0.7006468772888184,0.0
1663844307346037089,0.8818628191947937,0.623993456363678,0.0
1663844307470186255,0.8917617201805115,0.5414059162139893,0.0
1663844307553736361,0.9047672152519226,0.45769402384757996,0.0
1663844307659217961,0.9158968329429626,0.37937161326408386,0.0
1663844307766686505,0.9320926070213318,0.30651214718818665,0.0
1663844307880269062,0.9502502679824829,0.23480224609375,0.0
1663844307981244890,0.9842796921730042,0.15800583362579346,0.0
1663844308083262526,0.9961740374565125,0.09701018035411835,0.0
1663844308191466594,1.0074361562728882,0.04087715223431587,0.0
1663844308279898975,1.0209283828735352,-0.01235943753272295,0.0
1663844308465116379,1.0312507152557373,-0.05758189409971237,0.0
1663844308466600622,1.0411914587020874,-0.09591805189847946,0.0
1663844308595296619,1.0498169660568237,-0.12817826867103577,0.0
1663844308684570312,1.074946403503418,-0.1259302794933319,0.0
1663844308824968224,1.0801151990890503,-0.15188243985176086,0.0
1663844308897877917,1.094262719154358,-0.1699298620223999,0.0
1663844309057656329,1.105775237083435,-0.1690537929534912,0.0
1663844309125918212,1.1127264499664307,-0.18500880897045135,0.0
1663844309266103970,1.1230005025863647,-0.17019623517990112,0.0
1663844309358555149,1.124545931816101,-0.18126583099365234,0.0
1663844309359897656,1.132029414176941,-0.1867014616727829,0.0
1663844309499619989,1.1329234838485718,-0.19076058268547058,0.0
1663844309570004689,1.131711483001709,-0.19152723252773285,0.0
1663844309641611135,1.1277786493301392,-0.16633597016334534,0.0
1663844309777805028,1.1241486072540283,-0.1659410297870636,0.0
1663844309907705069,1.118260145187378,-0.14265649020671844,0.0
1663844309910729282,1.1068854331970215,-0.1252298653125763,0.0
1663844310086887056,1.1011042594909668,-0.10688507556915283,0.0
1663844310115690659,1.0937973260879517,-0.08932534605264664,0.0
1663844310192593232,1.0841717720031738,-0.08486978709697723,0.0
1663844310279605719,1.074912667274475,-0.07384878396987915,0.0
1663844310464630477,1.0658084154129028,-0.07137739658355713,0.0
1663844310485220853,1.0536302328109741,-0.05860739201307297,0.0
1663844310568042665,1.0422453880310059,-0.04857280105352402,0.0
1663844310710669644,1.0328630208969116,-0.03749572113156319,0.0
1663844310792083620,1.022852897644043,-0.028457356616854668,0.0
1663844310871052502,1.0130980014801025,-0.02031416818499565,0.0
1663844310952234628,1.006619930267334,-0.014052941463887691,0.0
1663844311079872152,0.9986584186553955,-0.011249344795942307,0.0
1663844311156082426,0.9916527271270752,-0.004664038307964802,0.0
1663844311235157908,0.9865660667419434,0.0008981015998870134,0.0
1663844311331001828,0.9852772355079651,0.006390593945980072,0.0
1663844311447672374,0.982477068901062,0.014910664409399033,0.0
1663844311537408797,0.975750744342804,0.026816340163350105,0.0
1663844311724149749,0.9680070281028748,0.04448636621236801,0.0
1663844311744523059,0.9584701657295227,0.06799139082431793,0.0
1663844311829267015,0.9449164867401123,0.09614291042089462,0.0
1663844311989630533,0.9275195002555847,0.13335539400577545,0.0
1663844312125345540,0.9072598814964294,0.1796625554561615,0.0
1663844312204791773,0.8856000900268555,0.2250649333000183,0.0
1663844312339029162,0.8627390265464783,0.27063485980033875,0.0
1663844312365536024,0.8377440571784973,0.3168381452560425,0.0
1663844312446381096,0.8077025413513184,0.3623717129230499,0.0
1663844312540153525,0.7668630480766296,0.4018082916736603,0.0
1663844312702553017,0.7219539880752563,0.4546738564968109,0.0
1663844312827501315,0.6869919896125793,0.5102123022079468,0.0
1663844312984104158,0.6476324796676636,0.5582607984542847,0.0
1663844313107106703,0.6074970364570618,0.6030123829841614,0.0
1663844313153762971,0.5456532835960388,0.6520019769668579,0.0
1663844313211733435,0.47158634662628174,0.6925521492958069,0.0
1663844313406635438,0.39454206824302673,0.7319260239601135,0.0
1663844313410498284,0.3300444483757019,0.7636504769325256,0.0
1663844313523334693,0.2755264937877655,0.7855222821235657,0.0
1663844313767209765,0.21862074732780457,0.8483253717422485,0.0
1663844313769147633,0.17449477314949036,0.8789613246917725,0.0
1663844313898869538,0.1525743007659912,0.9217080473899841,0.0
1663844314034598515,0.15196478366851807,0.9663376808166504,0.0
1663844314161164796,0.16471701860427856,1.0026456117630005,0.0
1663844314247730922,0.190962553024292,1.0371893644332886,0.0
1663844314369072711,0.21869970858097076,1.0736613273620605,0.0
1663844314483601118,0.22517797350883484,1.1301910877227783,0.0
1663844314586414332,0.24197570979595184,1.1818732023239136,0.0
1663844314712293026,0.2764364778995514,1.2203351259231567,0.0
1663844314839171147,0.32867366075515747,1.2505723237991333,0.0
1663844314911607676,0.39886415004730225,1.2759441137313843,0.0
1663844315030030151,0.4004320800304413,1.3136640787124634,0.0
1663844315204526225,0.4020000100135803,1.3513840436935425,0.0
1663844315211262997,0.40356793999671936,1.3891040086746216,0.0
1663844315385893386,0.4051358699798584,1.4268239736557007,0.0
1663844315387586413,0.32696640491485596,1.4653137922286987,0.0
1663844315579104383,0.32258689403533936,1.5030912160873413,0.0
1663844315583219570,0.28994980454444885,1.4772493839263916,0.0
1663844315687536437,0.2836141884326935,1.5106228590011597,0.0
1663844315808468273,0.2772785723209381,1.5439963340759277,0.0
1663844315892183809,0.27094295620918274,1.5773698091506958,0.0
1663844315989524682,0.26460734009742737,1.6107432842254639,0.0
1663844316128562876,0.258271723985672,1.644116759300232,0.0
1663844316196516649,0.2519361078739166,1.677490234375,0.0
1663844316281803027,0.24560047686100006,1.710863709449768,0.0
1663844316415801499,0.2392648458480835,1.7442371845245361,0.0
1663844316548155001,0.23292921483516693,1.7776106595993042,0.0
1663844316556219997,0.22659358382225037,1.8109841346740723,0.0
1663844316659293453,0.2202579528093338,1.8443576097488403,0.0
1663844316831786739,0.0,0.0,0.0
1663844316883309876,0.0,0.0,0.0
1663844316970432807,0.0,0.0,0.0
1663844317034723494,0.0,0.0,0.0
1663844317114451708,0.0,0.0,0.0
1663844317272752009,0.0,0.0,0.0
1663844317331635596,0.0,0.0,0.0
1663844317439182538,0.0,0.0,0.0
1663844317487420891,0.0,0.0,0.0
1663844317569054699,0.0,0.0,0.0
1663844317642288181,1.6092808246612549,-1.1402108669281006,0.0
1663844317729373282,1.4233591556549072,-1.2137947082519531,0.0
1663844317806099829,1.3826271295547485,-1.2146692276000977,0.0
1663844317884781194,1.3595799207687378,-1.2202600240707397,0.0
1663844317967570499,1.3513503074645996,-1.2051072120666504,0.0
1663844318060471822,1.3363163471221924,-1.207122802734375,0.0
1663844318209003831,1.3185818195343018,-1.2126083374023438,0.0
1663844318291808560,1.3112021684646606,-1.2123674154281616,0.0
1663844318434433516,1.30684494972229,-1.2195016145706177,0.0
1663844318438308663,1.2999887466430664,-1.218482255935669,0.0
1663844318535785391,1.290475606918335,-1.218208909034729,0.0
1663844318679145233,1.285388469696045,-1.2158492803573608,0.0
1663844318833420010,1.2829495668411255,-1.2134507894515991,0.0
1663844318834849793,1.2782745361328125,-1.211237907409668,0.0
1663844318941808818,1.2774063348770142,-1.2066164016723633,0.0
1663844319058293261,1.272505521774292,-1.2047159671783447,0.0
1663844319148711667,1.2662335634231567,-1.2083330154418945,0.0
1663844319288132665,1.2667781114578247,-1.2052685022354126,0.0
1663844319373215386,1.266129970550537,-1.2041409015655518,0.0
1663844319457334953,1.2627853155136108,-1.2049189805984497,0.0
1663844319535314447,1.262295126914978,-1.2071599960327148,0.0
1663844319616734467,1.2466808557510376,-1.2158831357955933,0.0
1663844319801481374,1.24040949344635,-1.2380919456481934,0.0
1663844319894193328,1.22509765625,-1.2575017213821411,0.0
1663844319988111695,1.2050215005874634,-1.278208613395691,0.0
1663844320157008803,1.1876565217971802,-1.3000985383987427,0.0
1663844320325648879,1.1704174280166626,-1.316470980644226,0.0
1663844320421273583,1.16033136844635,-1.3404438495635986,0.0
1663844320461738015,1.1488943099975586,-1.3648220300674438,0.0
1663844320600953306,1.1389700174331665,-1.394493818283081,0.0
1663844320605118368,1.1300429105758667,-1.4284625053405762,0.0
1663844320774685142,1.1200134754180908,-1.4640735387802124,0.0
1663844320874865040,1.1088213920593262,-1.499434232711792,0.0
1663844320918084153,1.098097324371338,-1.5316609144210815,0.0
1663844320964689111,1.091010332107544,-1.561341643333435,0.0
1663844321052094663,1.0855536460876465,-1.589045763015747,0.0
1663844321156052873,1.0906648635864258,-1.619486927986145,0.0
1663844321274293146,1.0959378480911255,-1.6449121236801147,0.0
1663844321354852529,1.1020400524139404,-1.6681979894638062,0.0
1663844321547274924,1.109487771987915,-1.684195637702942,0.0
1663844321548941215,1.120015263557434,-1.6947193145751953,0.0
1663844321673381227,1.1310479640960693,-1.693113923072815,0.0
1663844321769744211,1.1434794664382935,-1.691213846206665,0.0
1663844321861671961,1.1645333766937256,-1.690152645111084,0.0
1663844321993628291,1.1938318014144897,-1.6947051286697388,0.0
1663844322101002083,1.2310338020324707,-1.697427749633789,0.0
1663844322184326917,1.2676987648010254,-1.694361686706543,0.0
1663844322320277854,1.304370641708374,-1.6884552240371704,0.0
1663844322412324008,1.3399587869644165,-1.6831574440002441,0.0
1663844322507994856,1.374167799949646,-1.6765025854110718,0.0
1663844322634513764,1.3949921131134033,-1.669571042060852,0.0
1663844322744864014,1.4122109413146973,-1.6742626428604126,0.0
1663844322826574711,1.4190032482147217,-1.6832830905914307,0.0
1663844322967526299,1.4169164896011353,-1.6907155513763428,0.0
1663844323048755356,1.4106566905975342,-1.700441598892212,0.0
1663844323140199555,1.3970718383789062,-1.706281065940857,0.0
1663844323229750958,1.3763375282287598,-1.7227182388305664,0.0
